Frequency[Hz] Re_Zxquad[Ohm/m] Im_Zxquad[Ohm/m]
1.0000000000e-02	3.5155320526e-23	1.1522396187e-22
1.0000000000e-01	2.9673287532e-21	6.5812616742e-21
1.0000000000e+00	1.8886467586e-19	2.9038778427e-19
1.0592537300e+00	2.0857064509e-19	3.1816243153e-19
1.1220184500e+00	2.3028115508e-19	3.4854411518e-19
1.1885022300e+00	2.5419492161e-19	3.8177357077e-19
1.2589254100e+00	2.8052988358e-19	4.1811348887e-19
1.3335214300e+00	3.0952501675e-19	4.5785050101e-19
1.4125375400e+00	3.4144232592e-19	5.0129734403e-19
1.4962356600e+00	3.7656901835e-19	5.4879522820e-19
1.5848931900e+00	4.1521987597e-19	6.0071640503e-19
1.6788040200e+00	4.5773985279e-19	6.5746697460e-19
1.7782794100e+00	5.0450690968e-19	7.1948995163e-19
1.8836490900e+00	5.5593511822e-19	7.8726859455e-19
1.9952623100e+00	6.1247803857e-19	8.6133004526e-19
2.1134890400e+00	6.7463242559e-19	9.4224929504e-19
2.2387211400e+00	7.4294226290e-19	1.0306535121e-18
2.3713737100e+00	8.1800318332e-19	1.1272267240e-18
2.5118864300e+00	9.0046728448e-19	1.2327150314e-18
2.6607250600e+00	9.9104839705e-19	1.3479320918e-18
2.8183829300e+00	1.0905278358e-18	1.4737653467e-18
2.9853826200e+00	1.1997606786e-18	1.6111825950e-18
3.1622776600e+00	1.3196826243e-18	1.7612392780e-18
3.3496543900e+00	1.4513174849e-18	1.9250864279e-18
3.5481338900e+00	1.5957853665e-18	2.1039792064e-18
3.7583740400e+00	1.7543115849e-18	2.2992864125e-18
3.9810717100e+00	1.9282364279e-18	2.5125006511e-18
4.2169650300e+00	2.1190257930e-18	2.7452495630e-18
4.4668359200e+00	2.3282828143e-18	2.9993079604e-18
4.7315125900e+00	2.5577605386e-18	3.2766111859e-18
5.0118723400e+00	2.8093757835e-18	3.5792695211e-18
5.3088444400e+00	3.0852242387e-18	3.9095840113e-18
5.6234132500e+00	3.3875969736e-18	4.2700636860e-18
5.9566214400e+00	3.7189984834e-18	4.6634442781e-18
6.3095734400e+00	4.0821662739e-18	5.0927087663e-18
6.6834391800e+00	4.4800923723e-18	5.5611095786e-18
7.0794578400e+00	4.9160467435e-18	6.0721929973e-18
7.4989420900e+00	5.3936028153e-18	6.6298256115e-18
7.9432823500e+00	5.9166653887e-18	7.2382232357e-18
8.4139514200e+00	6.4895010847e-18	7.9019824172e-18
8.9125093800e+00	7.1167715430e-18	8.6261147753e-18
9.4406087600e+00	7.8035696673e-18	9.4160844695e-18
1.0000000000e+01	8.5554591818e-18	1.0277849040e-17
1.0592537300e+01	9.3785178058e-18	1.1217903725e-17
1.1220184500e+01	1.0279384341e-17	1.2243330368e-17
1.1885022300e+01	1.1265309935e-17	1.3361849899e-17
1.2589254100e+01	1.2344214394e-17	1.4581880335e-17
1.3335214300e+01	1.3524747246e-17	1.5912599341e-17
1.4125375400e+01	1.4816354149e-17	1.7364013120e-17
1.4962356600e+01	1.6229350261e-17	1.8947030690e-17
1.5848931900e+01	1.7774999513e-17	2.0673545919e-17
1.6788040200e+01	1.9465600816e-17	2.2556525659e-17
1.7782794100e+01	2.1314583234e-17	2.4610107269e-17
1.8836490900e+01	2.3336608699e-17	2.6849703366e-17
1.9952623100e+01	2.5547685012e-17	2.9292117780e-17
2.1134890400e+01	2.7965287719e-17	3.1955670283e-17
2.2387211400e+01	3.0608495122e-17	3.4860333740e-17
2.3713737100e+01	3.3498133381e-17	3.8027882987e-17
2.5118864300e+01	3.6656936500e-17	4.1482057557e-17
2.6607250600e+01	4.0109719548e-17	4.5248738680e-17
2.8183829300e+01	4.3883569007e-17	4.9356142585e-17
2.9853826200e+01	4.8008048710e-17	5.3835031224e-17
3.1622776600e+01	5.2515426052e-17	5.8718941643e-17
3.3496543900e+01	5.7440917467e-17	6.4044436249e-17
3.5481338900e+01	6.2822957229e-17	6.9851376199e-17
3.7583740400e+01	6.8703490008e-17	7.6183218025e-17
3.9810717100e+01	7.5128289912e-17	8.3087338796e-17
4.2169650300e+01	8.2147308669e-17	9.0615389191e-17
4.4668359200e+01	8.9815055816e-17	9.8823679183e-17
4.7315125900e+01	9.8191012195e-17	1.0777359817e-16
5.0118723400e+01	1.0734008239e-16	1.1753207270e-16
5.3088444400e+01	1.1733308586e-16	1.2817206669e-16
5.6234132500e+01	1.2824729611e-16	1.3977312596e-16
5.9566214400e+01	1.4016702575e-16	1.5242197099e-16
6.3095734400e+01	1.5318426647e-16	1.6621314295e-16
6.6834391800e+01	1.6739938393e-16	1.8124971392e-16
7.0794578400e+01	1.8292187797e-16	1.9764404912e-16
7.4989420900e+01	1.9987121506e-16	2.1551865159e-16
7.9432823500e+01	2.1837772609e-16	2.3500707221e-16
8.4139514200e+01	2.3858359984e-16	2.5625490824e-16
8.9125093800e+01	2.6064394884e-16	2.7942088857e-16
9.4406087600e+01	2.8472799137e-16	3.0467806085e-16
1.0000000000e+02	3.1102031912e-16	3.3221507636e-16
1.0592537300e+02	3.3972230334e-16	3.6223760445e-16
1.1220184500e+02	3.7105360197e-16	3.9496986501e-16
1.1885022300e+02	4.0525383069e-16	4.3065629861e-16
1.2589254100e+02	4.4258435844e-16	4.6956339459e-16
1.3335214300e+02	4.8333028624e-16	5.1198167597e-16
1.4125375400e+02	5.2780259626e-16	5.5822786891e-16
1.4962356600e+02	5.7634049034e-16	6.0864726469e-16
1.5848931900e+02	6.2931395174e-16	6.6361629878e-16
1.6788040200e+02	6.8712653104e-16	7.2354535402e-16
1.7782794100e+02	7.5021838167e-16	7.8888182983e-16
1.8836490900e+02	8.1906957875e-16	8.6011347223e-16
1.9952623100e+02	8.9420372730e-16	9.3777201975e-16
2.1134890400e+02	9.7619190672e-16	1.0224371632e-15
2.2387211400e+02	1.0656569668e-15	1.1147408906e-15
2.3713737100e+02	1.1632782019e-15	1.2153721583e-15
2.5118864300e+02	1.2697964965e-15	1.3250820988e-15
2.6607250600e+02	1.3860198119e-15	1.4446895356e-15
2.8183829300e+02	1.5128293741e-15	1.5750871990e-15
2.9853826200e+02	1.6511862055e-15	1.7172482883e-15
3.1622776600e+02	1.8021383701e-15	1.8722337882e-15
3.3496543900e+02	1.9668288602e-15	2.0412003759e-15
3.5481338900e+02	2.1465041763e-15	2.2254090419e-15
3.7583740400e+02	2.3425236713e-15	2.4262344951e-15
3.9810717100e+02	2.5563697706e-15	2.6451754341e-15
4.2169650300e+02	2.7896590895e-15	2.8838657254e-15
4.4668359200e+02	3.0441545894e-15	3.1440865704e-15
4.7315125900e+02	3.3217787740e-15	3.4277798333e-15
5.0118723400e+02	3.6246281072e-15	3.7370624800e-15
5.3088444400e+02	3.9549887980e-15	4.0742424238e-15
5.6234132500e+02	4.3153538678e-15	4.4418357049e-15
5.9566214400e+02	4.7084418999e-15	4.8425852807e-15
6.3095734400e+02	5.1372173989e-15	5.2794814971e-15
6.6834391800e+02	5.6049130450e-15	5.7557843635e-15
7.0794578400e+02	6.1150538644e-15	6.2750479063e-15
7.4989420900e+02	6.6714837026e-15	6.8411466831e-15
7.9432823500e+02	7.2783940102e-15	7.4583046705e-15
8.4139514200e+02	7.9403552486e-15	8.1311268018e-15
8.9125093800e+02	8.6623511169e-15	8.8646332764e-15
9.4406087600e+02	9.4498159185e-15	9.6642970781e-15
1.0000000000e+03	1.0308675188e-14	1.0536084806e-14
1.0592537300e+03	1.1245390260e-14	1.1486501011e-14
1.1220184500e+03	1.2267006317e-14	1.2522636953e-14
1.1885022300e+03	1.3381205568e-14	1.3652223650e-14
1.2589254100e+03	1.4596364249e-14	1.4883688900e-14
1.3335214300e+03	1.5921615805e-14	1.6226220865e-14
1.4125375400e+03	1.7366919155e-14	1.7689836242e-14
1.4962356600e+03	1.8943132880e-14	1.9285455056e-14
1.5848931900e+03	2.0662097042e-14	2.1024982381e-14
1.6788040200e+03	2.2536721128e-14	2.2921396688e-14
1.7782794100e+03	2.4581081256e-14	2.4988847054e-14
1.8836490900e+03	2.6810525335e-14	2.7242758322e-14
1.9952623100e+03	2.9241787498e-14	2.9699946959e-14
2.1134890400e+03	3.1893113743e-14	3.2378745473e-14
2.2387211400e+03	3.4784398372e-14	3.5299140080e-14
2.3713737100e+03	3.7937332561e-14	3.8482919165e-14
2.5118864300e+03	4.1375566581e-14	4.1953836224e-14
2.6607250600e+03	4.5124886897e-14	4.5737787159e-14
2.8183829300e+03	4.9213409062e-14	4.9863002975e-14
2.9853826200e+03	5.3671787118e-14	5.4360261111e-14
3.1622776600e+03	5.8533447654e-14	5.9263108601e-14
3.3496543900e+03	6.3834974270e-14	6.4607982211e-14
3.5481338900e+03	6.9617195036e-14	7.0437303289e-14
3.7583740400e+03	7.5919254968e-14	7.6787818474e-14
3.9810717100e+03	8.2792859566e-14	8.3713340112e-14
4.2169650300e+03	9.0287962394e-14	9.1263450146e-14
4.4668359200e+03	9.8460708657e-14	9.9494477300e-14
4.7315125900e+03	1.0737231279e-13	1.0846782972e-13
5.0118723400e+03	1.1708951447e-13	1.1825045515e-13
5.3088444400e+03	1.2768508083e-13	1.2891533675e-13
5.6234132500e+03	1.3923834780e-13	1.4054204177e-13
5.9566214400e+03	1.5183581065e-13	1.5321731104e-13
6.3095734400e+03	1.6557177518e-13	1.6703571021e-13
6.6834391800e+03	1.8054906075e-13	1.8210033274e-13
7.0794578400e+03	1.9687976662e-13	1.9852356831e-13
7.4989420900e+03	2.1468610952e-13	2.1642794443e-13
7.9432823500e+03	2.3410134072e-13	2.3594703641e-13
8.4139514200e+03	2.5527073652e-13	2.5722646802e-13
8.9125093800e+03	2.7835268648e-13	2.8042499566e-13
9.4406087600e+03	3.0351987550e-13	3.0571569143e-13
1.0000000000e+04	3.3096057376e-13	3.3328723720e-13
1.0592537300e+04	3.6088004301e-13	3.6334533184e-13
1.1220184500e+04	3.9350207211e-13	3.9611422480e-13
1.1885022300e+04	4.2907064310e-13	4.3183838725e-13
1.2589254100e+04	4.6785175824e-13	4.7078434109e-13
1.3335214300e+04	5.1013542595e-13	5.1324264096e-13
1.4125375400e+04	5.5623782420e-13	5.5953004969e-13
1.4962356600e+04	6.0650366344e-13	6.0999189219e-13
1.5848931900e+04	6.6130876164e-13	6.6500463858e-13
1.6788040200e+04	7.2106285050e-13	7.2497871245e-13
1.7782794100e+04	7.8621263146e-13	7.9036154992e-13
1.8836490900e+04	8.5724511786e-13	8.6164093673e-13
1.9952623100e+04	9.3469126466e-13	9.3934865320e-13
2.1134890400e+04	1.0191299342e-12	1.0240644370e-12
2.2387211400e+04	1.1111922342e-12	1.1164203058e-12
2.3713737100e+04	1.2115661987e-12	1.2171052840e-12
2.5118864300e+04	1.3210019515e-12	1.3268705145e-12
2.6607250600e+04	1.4403172970e-12	1.4465349225e-12
2.8183829300e+04	1.5704038244e-12	1.5769912386e-12
2.9853826200e+04	1.7122335611e-12	1.7192127433e-12
3.1622776600e+04	1.8668662486e-12	1.8742604725e-12
3.3496543900e+04	2.0354572395e-12	2.0432911440e-12
3.5481338900e+04	2.2192660976e-12	2.2275658196e-12
3.7583740400e+04	2.4196660646e-12	2.4284592593e-12
3.9810717100e+04	2.6381542392e-12	2.6474702431e-12
4.2169650300e+04	2.8763628067e-12	2.8862326784e-12
4.4668359200e+04	3.1360712055e-12	3.1465278480e-12
4.7315125900e+04	3.4192194046e-12	3.4302976771e-12
5.0118723400e+04	3.7279223728e-12	3.7396592135e-12
5.3088444400e+04	4.0644858935e-12	4.0769204415e-12
5.6234132500e+04	4.4314237754e-12	4.4445974931e-12
5.9566214400e+04	4.8314765814e-12	4.8454333971e-12
6.3095734400e+04	5.2676321201e-12	5.2824185707e-12
6.6834391800e+04	5.7431477412e-12	5.7588131454e-12
7.0794578400e+04	6.2615746181e-12	6.2781712192e-12
7.4989420900e+04	6.8267843023e-12	6.8443674616e-12
7.9432823500e+04	7.4429975607e-12	7.4616259512e-12
8.4139514200e+04	8.1148159539e-12	8.1345517233e-12
8.9125093800e+04	8.8472561145e-12	8.8681650993e-12
9.4406087600e+04	9.6457871850e-12	9.6679391955e-12
1.0000000000e+05	1.0516371679e-11	1.0539840673e-11
1.0592537300e+05	1.1465510080e-11	1.1490374366e-11
1.1220184500e+05	1.2500288941e-11	1.2526631567e-11
1.1885022300e+05	1.3628434492e-11	1.3656343395e-11
1.2589254100e+05	1.4858369434e-11	1.4887937954e-11
1.3335214300e+05	1.6199276632e-11	1.6230603507e-11
1.4125375400e+05	1.7661166872e-11	1.7694356957e-11
1.4962356600e+05	1.9254954473e-11	1.9290118530e-11
1.5848931900e+05	2.0992537581e-11	2.1029793506e-11
1.6788040200e+05	2.2886888245e-11	2.2926360456e-11
1.7782794100e+05	2.4952148003e-11	2.4993968764e-11
1.8836490900e+05	2.7203734463e-11	2.7248043783e-11
1.9952623100e+05	2.9658455634e-11	2.9705401978e-11
2.1134890400e+05	3.2334635466e-11	3.2384376267e-11
2.2387211400e+05	3.5252251105e-11	3.5304953169e-11
2.3713737100e+05	3.8433081358e-11	3.8488921480e-11
2.5118864300e+05	4.1900869428e-11	4.1960035100e-11
2.6607250600e+05	4.5681500112e-11	4.5744190240e-11
2.8183829300e+05	4.9803193102e-11	4.9869618411e-11
2.9853826200e+05	5.4296713408e-11	5.4367097259e-11
3.1622776600e+05	5.9195600624e-11	5.9270180134e-11
3.3496543900e+05	6.4536419907e-11	6.4615446357e-11
3.5481338900e+05	7.0359034146e-11	7.0442774204e-11
3.7583740400e+05	7.6706901913e-11	7.6795638245e-11
3.9810717100e+05	8.3627401396e-11	8.3721433990e-11
4.2169650300e+05	9.1172184191e-11	9.1271831071e-11
4.4668359200e+05	9.9397560477e-11	9.9503159130e-11
4.7315125900e+05	1.0836491965e-10	1.0847682835e-10
5.0118723400e+05	1.1814118663e-10	1.1825978495e-10
5.3088444400e+05	1.2879932461e-10	1.2892501709e-10
5.6234132500e+05	1.4041887739e-10	1.4055209097e-10
5.9566214400e+05	1.5308656136e-10	1.5322774950e-10
6.3095734400e+05	1.6689691464e-10	1.6704656135e-10
6.6834391800e+05	1.8195300320e-10	1.8211162103e-10
7.0794578400e+05	1.9836718919e-10	1.9853532024e-10
7.4989420900e+05	2.1626196548e-10	2.1644018954e-10
7.9432823500e+05	2.3577087783e-10	2.3595980629e-10
8.4139514200e+05	2.5703951230e-10	2.5723979834e-10
8.9125093800e+05	2.8022658760e-10	2.8043892515e-10
9.4406087600e+05	3.0550513812e-10	3.0573026288e-10
1.0000000000e+06	3.3306380395e-10	3.3330249849e-10
1.0592537300e+06	3.6310823608e-10	3.6336133495e-10
1.1220184500e+06	3.9586263912e-10	3.9613102578e-10
1.1885022300e+06	4.3157143327e-10	4.3185605130e-10
1.2589254100e+06	4.7050108544e-10	4.7080293752e-10
1.3335214300e+06	5.1294209522e-10	5.1326225025e-10
1.4125375400e+06	5.5921116329e-10	5.5955075642e-10
1.4962356600e+06	6.0965355036e-10	6.1001379420e-10
1.5848931900e+06	6.6464565930e-10	6.6502784488e-10
1.6788040200e+06	7.2459784035e-10	7.2500334125e-10
1.7782794100e+06	7.8995744909e-10	7.9038773572e-10
1.8836490900e+06	8.6121219284e-10	8.6166882933e-10
1.9952623100e+06	9.3889376222e-10	9.3937841868e-10
2.1134890400e+06	1.0235817961e-09	1.0240962598e-09
2.2387211400e+06	1.1159082265e-09	1.1164544009e-09
2.3713737100e+06	1.2165619525e-09	1.2171418757e-09
2.5118864300e+06	1.3262940253e-09	1.3269098777e-09
2.6607250600e+06	1.4459232173e-09	1.4465773428e-09
2.8183829300e+06	1.5763421673e-09	1.5770370418e-09
2.9853826200e+06	1.7185239827e-09	1.7192623066e-09
3.1622776600e+06	1.8735295667e-09	1.8743141932e-09
3.3496543900e+06	2.0425154845e-09	2.0433495113e-09
3.5481338900e+06	2.2267426247e-09	2.2276293430e-09
3.7583740400e+06	2.4275855636e-09	2.4285285399e-09
3.9810717100e+06	2.6465428776e-09	2.6475459229e-09
4.2169650300e+06	2.8852482703e-09	2.8863155216e-09
4.4668359200e+06	3.1454828002e-09	3.1466186902e-09
4.7315125900e+06	3.4291881482e-09	3.4303974559e-09
5.0118723400e+06	3.7384810968e-09	3.7397690088e-09
5.3088444400e+06	4.0756693657e-09	4.0770414456e-09
5.6234132500e+06	4.4432687607e-09	4.4447310613e-09
5.9566214400e+06	4.8440219947e-09	4.8455810578e-09
6.3095734400e+06	5.2809191282e-09	5.2825820562e-09
6.6834391800e+06	5.7572198955e-09	5.7589944020e-09
7.0794578400e+06	6.2764779969e-09	6.2783724478e-09
7.4989420900e+06	6.8425676334e-09	6.8445911486e-09
7.9432823500e+06	7.4597123944e-09	7.4618749089e-09
8.4139514200e+06	8.1325167649e-09	8.1348291208e-09
8.9125093800e+06	8.8660004958e-09	8.8684745438e-09
9.4406087600e+06	9.6656360512e-09	9.6682847426e-09
1.0000000000e+07	1.0537389409e-08	1.0540226969e-08
1.0592537300e+07	1.1487764549e-08	1.1490806517e-08
1.1220184500e+07	1.2523852089e-08	1.2527115584e-08
1.1885022300e+07	1.3653382029e-08	1.3656885901e-08
1.2589254100e+07	1.4884781453e-08	1.4888546490e-08
1.3335214300e+07	1.6227237605e-08	1.6231286633e-08
1.4125375400e+07	1.7690766063e-08	1.7695124454e-08
1.4962356600e+07	1.9286285730e-08	1.9290981404e-08
1.5848931900e+07	2.1025700152e-08	2.1030764188e-08
1.6788040200e+07	2.2921986475e-08	2.2927453314e-08
1.7782794100e+07	2.4989291942e-08	2.4995199797e-08
1.8836490900e+07	2.7243039663e-08	2.7249431229e-08
1.9952623100e+07	2.9700043966e-08	2.9706966625e-08
2.1134890400e+07	3.2378634914e-08	3.2386141653e-08
2.2387211400e+07	3.5298796173e-08	3.5306946095e-08
2.3713737100e+07	3.8482312973e-08	3.8491172412e-08
2.5118864300e+07	4.1952935647e-08	4.1962578684e-08
2.6607250600e+07	4.5736555923e-08	4.5747065807e-08
2.8183829300e+07	4.9861400626e-08	4.9872870799e-08
2.9853826200e+07	5.4358241794e-08	5.4370777415e-08
3.1622776600e+07	5.9260626870e-08	5.9274345937e-08
3.3496543900e+07	6.4605127940e-08	6.4620163939e-08
3.5481338900e+07	7.0431615534e-08	7.0448118562e-08
3.7583740400e+07	7.6783555154e-08	7.6801695075e-08
3.9810717100e+07	8.3708332121e-08	8.3728300707e-08
4.2169650300e+07	9.1257604551e-08	9.1279618846e-08
4.4668359200e+07	9.9487688943e-08	9.9511994725e-08
4.7315125900e+07	1.0845997948e-07	1.0848685616e-07
5.0118723400e+07	1.1824140760e-07	1.1827117004e-07
5.3088444400e+07	1.2890493906e-07	1.2893794593e-07
5.6234132500e+07	1.4053011968e-07	1.4056677858e-07
5.9566214400e+07	1.5320366789e-07	1.5324444246e-07
6.3095734400e+07	1.6702011978e-07	1.6706553684e-07
6.6834391800e+07	1.8208253724e-07	1.8213319900e-07
7.0794578400e+07	1.9850327630e-07	1.9855986446e-07
7.4989420900e+07	2.1640482067e-07	2.1646811576e-07
7.9432823500e+07	2.3592070081e-07	2.3599159141e-07
8.4139514200e+07	2.5719648345e-07	2.5727598546e-07
8.9125093800e+07	2.8039086384e-07	2.8048013483e-07
9.4406087600e+07	3.0567684172e-07	3.0577720637e-07
1.0000000000e+08	3.3324301744e-07	3.3335598894e-07
1.0592537300e+08	3.6329499310e-07	3.6342230066e-07
1.1220184500e+08	3.9605690909e-07	3.9620053158e-07
1.1885022300e+08	4.3177311125e-07	4.3193531487e-07
1.2589254100e+08	4.7070997475e-07	4.7089335181e-07
1.3335214300e+08	5.1315789017e-07	5.1336541099e-07
1.4125375400e+08	5.5943342470e-07	5.5966849065e-07
1.4962356600e+08	6.0988168417e-07	6.1014819591e-07
1.5848931900e+08	6.6487888293e-07	6.6518131073e-07
1.6788040200e+08	7.2483514907e-07	7.2517862046e-07
1.7782794100e+08	7.9019758040e-07	7.9058797489e-07
1.8836490900e+08	8.6145357342e-07	8.6189763974e-07
1.9952623100e+08	9.3913445702e-07	9.3963994046e-07
2.1134890400e+08	1.0238194431e-06	1.0243952394e-06
2.2387211400e+08	1.1161399634e-06	1.1167962796e-06
2.3713737100e+08	1.2167843454e-06	1.2175328999e-06
2.5118864300e+08	1.3265029472e-06	1.3273572109e-06
2.6607250600e+08	1.4461137466e-06	1.4470891979e-06
2.8183829300e+08	1.5765084346e-06	1.5776228750e-06
2.9853826200e+08	1.7186590692e-06	1.7199329294e-06
3.1622776600e+08	1.8736252594e-06	1.8750820574e-06
3.3496543900e+08	2.0425621335e-06	2.0442288827e-06
3.5481338900e+08	2.2267288379e-06	2.2286366375e-06
3.7583740400e+08	2.4274979923e-06	2.4296825780e-06
3.9810717100e+08	2.6463658600e-06	2.6488683682e-06
4.2169650300e+08	2.8849634647e-06	2.8878312169e-06
4.4668359200e+08	3.1450687674e-06	3.1483562179e-06
4.7315125900e+08	3.4286198516e-06	3.4323896577e-06
5.0118723400e+08	3.7377293325e-06	3.7420536178e-06
5.3088444400e+08	4.0747000793e-06	4.0796618704e-06
5.6234132500e+08	4.4420422934e-06	4.4477371810e-06
5.9566214400e+08	4.8424922171e-06	4.8490302412e-06
6.3095734400e+08	5.2790323909e-06	5.2865402823e-06
6.6834391800e+08	5.7549138572e-06	5.7635375443e-06
7.0794578400e+08	6.2736802386e-06	6.2835878127e-06
7.4989420900e+08	6.8391940890e-06	6.8505791363e-06
7.9432823500e+08	7.4556655168e-06	7.4687510619e-06
8.4139514200e+08	8.1276834470e-06	8.1427263958e-06
8.9125093800e+08	8.8602495946e-06	8.8775459308e-06
9.4406087600e+08	9.6588155551e-06	9.6787063422e-06
1.0000000000e+09	1.0529323248e-05	1.0552201436e-05
1.0592537300e+09	1.1478248682e-05	1.1504567260e-05
1.1220184500e+09	1.2512650418e-05	1.2542931206e-05
1.1885022300e+09	1.3640221161e-05	1.3675065664e-05
1.2589254100e+09	1.4869344993e-05	1.4909446630e-05
1.3335214300e+09	1.6209159435e-05	1.6255317290e-05
1.4125375400e+09	1.7669622590e-05	1.7722757926e-05
1.4962356600e+09	1.9261586927e-05	1.9322761930e-05
1.5848931900e+09	2.0996879464e-05	2.1067318442e-05
1.6788040200e+09	2.2888388594e-05	2.2969503245e-05
1.7782794100e+09	2.4950159357e-05	2.5043577403e-05
1.8836490900e+09	2.7197496763e-05	2.7305094863e-05
1.9952623100e+09	2.9647078189e-05	2.9771020559e-05
2.1134890400e+09	3.2317076365e-05	3.2459858697e-05
2.2387211400e+09	3.5227292562e-05	3.5391792768e-05
2.3713737100e+09	3.8399301996e-05	3.8588839205e-05
2.5118864300e+09	4.1856611668e-05	4.2075013892e-05
2.6607250600e+09	4.5624833187e-05	4.5876515165e-05
2.8183829300e+09	4.9731869138e-05	5.0021923336e-05
2.9853826200e+09	5.4208117899e-05	5.4542417832e-05
3.1622776600e+09	5.9086694660e-05	5.9472015541e-05
3.3496543900e+09	6.4403673224e-05	6.4847830239e-05
3.5481338900e+09	7.0198348195e-05	7.0710356686e-05
3.7583740400e+09	7.6513520695e-05	7.7103780600e-05
3.9810717100e+09	8.3395808550e-05	8.4076317873e-05
4.2169650300e+09	9.0895984279e-05	9.1680584365e-05
4.4668359200e+09	9.9069341728e-05	9.9974001353e-05
4.7315125900e+09	1.0797609541e-04	1.0901923767e-04
5.0118723400e+09	1.1768181315e-04	1.1888469514e-04
